%time,field.curr_pos1,field.curr_pos2,field.toff,field.motor_fail,field.t
1685049954202886500,0,0,251240,0,49954.265625
1685049954202930300,0,0,250640,0,49954.2734375
1685049954202996500,0,0,249520,0,49954.28515625
1685049954203060100,0,0,249280,0,49954.296875
1685049954248551800,0,0,248000,0,49954.3046875
1685049954248571200,0,0,248360,0,49954.31640625
1685049954248656000,0,0,252959,0,49954.32421875
1685049954248683100,0,0,250080,0,49954.3359375
1685049954248779800,0,0,249600,0,49954.34375
1685049954304436100,0,0,248480,0,49954.359375
1685049954304455800,0,0,247280,0,49954.375
1685049954304468700,0,0,251280,0,49954.38671875
1685049954356896100,0,0,255200,0,49954.40234375
1685049954356925300,0,0,250160,0,49954.41015625
1685049954356946300,-6,4,248400,0,49954.421875
1685049954356956100,-23,18,249200,0,49954.43359375
1685049954356961600,-35,29,255040,0,49954.4375
1685049954357170100,-60,52,251840,0,49954.4453125
1685049954427964900,-89,72,249520,0,49954.45703125
1685049954427993200,-119,87,250800,0,49954.46484375
1685049954428016500,-153,94,251040,0,49954.4765625
1685049954428026500,-185,90,249800,0,49954.484375
1685049954428053400,-203,84,250880,0,49954.49609375
1685049954428067800,-209,75,250320,0,49954.5078125
1685049954428073300,-209,65,252240,0,49954.515625
1685049954473886700,-205,56,248720,0,49954.52734375
1685049954473913400,-202,55,250160,0,49954.53515625
1685049954473926700,-201,60,249920,0,49954.546875
1685049954473940700,-204,67,250560,0,49954.5546875
1685049954474099900,-205,77,250320,0,49954.56640625
1685049954526672900,-206,85,250000,0,49954.57421875
1685049954527056800,-207,88,250360,0,49954.5859375
1685049954527073400,-207,87,250240,0,49954.59765625
1685049954527077900,-206,82,250480,0,49954.60546875
1685049954527167500,-206,76,250440,0,49954.6171875
1685049954571717200,-206,69,250240,0,49954.625
1685049954571734000,-206,67,250000,0,49954.63671875
1685049954571737200,-205,69,251600,0,49954.64453125
1685049954571766700,-204,70,247600,0,49954.65625
1685049954571846900,-204,72,249280,0,49954.6640625
1685049954628475800,-206,78,254720,0,49954.6796875
1685049954628509000,-206,80,249760,0,49954.69140625
1685049954628537700,-207,80,255280,0,49954.69921875
1685049954628567900,-207,80,250720,0,49954.70703125
1685049954678483200,-207,79,249880,0,49954.71484375
1685049954678490100,-207,79,249280,0,49954.7265625
1685049954678492600,-207,79,249120,0,49954.734375
1685049954678495000,-207,79,249840,0,49954.74609375
1685049954678517600,-207,79,250160,0,49954.7578125
1685049954678770300,-207,79,250560,0,49954.765625
1685049954726807300,-207,79,253520,0,49954.77734375
1685049954726841800,-207,78,248160,0,49954.78515625
1685049954726855500,-207,78,249040,0,49954.796875
1685049954726859400,-207,78,250160,0,49954.8046875
1685049954726873400,-207,78,250360,0,49954.81640625
1685049954776989400,-207,78,249920,0,49954.82421875
1685049954777036700,-207,78,250080,0,49954.8359375
1685049954777073900,-207,78,250400,0,49954.84765625
1685049954777083200,-207,77,250240,0,49954.85546875
1685049954777180600,-207,77,250480,0,49954.8671875
1685049954824225100,-207,77,250480,0,49954.875
1685049954824374800,-207,77,249440,0,49954.88671875
1685049954824393500,-207,77,250400,0,49954.89453125
1685049954824500700,-207,77,251760,0,49954.90625
1685049954824505400,-207,77,247240,0,49954.9140625
1685049954872078000,-207,77,249360,0,49954.92578125
1685049954872110100,-207,77,249840,0,49954.9375
1685049954872186000,-207,77,249360,0,49954.9453125
1685049954872201800,-207,77,250240,0,49954.95703125
1685049954872242500,-207,76,250160,0,49954.96484375
1685049954923061000,-207,76,250720,0,49954.9765625
1685049954923150000,-207,76,250160,0,49954.984375
1685049954923160700,-207,76,250400,0,49954.99609375
1685049954923295700,-207,76,250720,0,49955.0078125
1685049954923357900,-207,76,250480,0,49955.015625
1685049954969219700,-207,76,250480,0,49955.02734375
1685049954969255200,-207,76,252480,0,49955.03515625
1685049954969264300,-207,76,234280,0,49955.046875
1685049954969270800,-207,76,249520,0,49955.0546875
1685049954969349600,-207,76,250880,0,49955.06640625
1685049955021036800,-207,76,250400,0,49955.07421875
1685049955021066200,-207,76,250240,0,49955.0859375
1685049955021073400,-207,76,249920,0,49955.09765625
1685049955021080300,-207,76,249880,0,49955.10546875
1685049955021086000,-207,76,250880,0,49955.1171875
1685049955099599600,-207,76,250000,0,49955.125
1685049955099615500,-207,76,250000,0,49955.13671875
1685049955099624100,-207,76,251320,0,49955.14453125
1685049955099630200,-207,76,250160,0,49955.15625
1685049955146043700,-207,76,252560,0,49955.1640625
1685049955146072800,-207,76,247680,0,49955.17578125
1685049955146087900,-207,76,249320,0,49955.1875
1685049955146093200,-207,76,235600,0,49955.1953125
1685049955146100200,-207,76,250080,0,49955.20703125
1685049955146113200,-207,76,250360,0,49955.21484375
1685049955146310000,-207,76,247440,0,49955.2265625
1685049955146361700,-207,76,251120,0,49955.234375
1685049955193800700,-207,76,245800,0,49955.24609375
1685049955193847300,-207,76,250560,0,49955.2578125
1685049955193878100,-207,76,249760,0,49955.265625
1685049955193902000,-207,76,250480,0,49955.27734375
1685049955194077200,-207,76,250400,0,49955.28515625
1685049955243863400,-207,76,253040,0,49955.296875
1685049955243888200,-207,76,247440,0,49955.3046875
1685049955243937900,-207,76,249280,0,49955.31640625
1685049955243973900,-207,76,250080,0,49955.32421875
1685049955243997400,-207,76,250160,0,49955.3359375
1685049955290070000,-207,76,252040,0,49955.34765625
1685049955290109600,-207,76,250240,0,49955.35546875
1685049955290119300,-207,76,250160,0,49955.3671875
1685049955290170200,-207,76,247760,0,49955.37890625
1685049955335530900,-207,76,246560,0,49955.3984375
1685049955335541200,-207,76,250720,0,49955.40625
1685049955335670400,-207,76,238080,0,49955.421875
1685049955335681300,-207,76,252400,0,49955.4296875
1685049955391092900,-207,76,249840,0,49955.44140625
1685049955391124100,-208,77,250400,0,49955.4453125
1685049955391133000,-217,84,250320,0,49955.45703125
1685049955391161000,-240,106,250800,0,49955.46875
1685049955391195900,-266,134,250000,0,49955.4765625
1685049955436479700,-297,168,250160,0,49955.48828125
1685049955436612000,-333,203,250440,0,49955.49609375
1685049955436623300,-368,228,253040,0,49955.5078125
1685049955436680800,-401,241,243040,0,49955.515625
1685049955436771900,-437,244,249320,0,49955.52734375
1685049955483198000,-463,244,250480,0,49955.53515625
1685049955483258000,-476,244,250160,0,49955.546875
1685049955483392100,-482,242,250720,0,49955.55859375
1685049955483465800,-481,231,250080,0,49955.56640625
1685049955483475500,-477,217,250080,0,49955.578125
1685049955529302800,-472,208,249680,0,49955.5859375
1685049955529325200,-473,209,249920,0,49955.59765625
1685049955529440800,-476,217,250160,0,49955.60546875
1685049955529458200,-479,226,255200,0,49955.6171875
1685049955576604500,-481,232,249840,0,49955.62890625
1685049955576624600,-482,235,252720,0,49955.63671875
1685049955576650900,-481,233,248000,0,49955.6484375
1685049955576667800,-480,231,249960,0,49955.65625
1685049955576708600,-479,229,250000,0,49955.66796875
1685049955624238000,-479,227,251040,0,49955.67578125
1685049955624279300,-480,226,250400,0,49955.6875
1685049955624324000,-480,226,250160,0,49955.6953125
1685049955624331100,-480,227,250880,0,49955.70703125
1685049955624447200,-480,227,250400,0,49955.71875
1685049955672444400,-480,228,250080,0,49955.7265625
1685049955672465000,-480,227,250480,0,49955.73828125
1685049955672580300,-480,227,249360,0,49955.74609375
1685049955672591800,-480,228,249960,0,49955.7578125
1685049955672769200,-480,228,252480,0,49955.765625
1685049955718850600,-480,227,247280,0,49955.77734375
1685049955718914500,-480,227,249520,0,49955.78515625
1685049955718970600,-480,228,250320,0,49955.796875
1685049955718996800,-480,228,250720,0,49955.80859375
1685049955775261700,-480,228,247000,0,49955.81640625
1685049955775304600,-480,228,250400,0,49955.828125
1685049955775310900,-480,228,250320,0,49955.8359375
1685049955775316100,-480,228,248160,0,49955.84765625
1685049955775495000,-480,228,249600,0,49955.85546875
1685049955775525100,-480,228,250160,0,49955.8671875
1685049955858449500,-480,228,250480,0,49955.87890625
1685049955858506800,-480,228,250120,0,49955.88671875
1685049955858526500,-480,228,252640,0,49955.8984375
1685049955858536900,-480,228,247280,0,49955.90625
1685049955858562200,-480,228,247440,0,49955.91796875
1685049955905911000,-480,228,250080,0,49955.92578125
1685049955905945200,-480,228,249840,0,49955.9375
1685049955905950600,-480,228,249440,0,49955.9453125
1685049955905955200,-480,228,249520,0,49955.95703125
1685049955905959900,-480,228,250640,0,49955.96875
1685049955906331500,-480,228,250080,0,49955.9765625
1685049955906387500,-480,228,250040,0,49955.98828125
1685049955906590200,-480,228,250320,0,49955.99609375
1685049955955196200,-480,228,250320,0,49956.0078125
1685049955955538300,-480,228,249720,0,49956.015625
1685049955955585300,-480,228,253840,0,49956.02734375
1685049955955757900,-480,228,248400,0,49956.03515625
1685049955955827200,-480,228,248560,0,49956.046875
1685049956002225400,-480,228,249680,0,49956.05859375
1685049956002278600,-480,228,248480,0,49956.06640625
1685049956002313800,-480,228,250040,0,49956.078125
1685049956002343500,-480,228,250720,0,49956.0859375
1685049956002385300,-480,228,250320,0,49956.09765625
1685049956049212300,-480,228,250240,0,49956.10546875
1685049956049246300,-480,228,250120,0,49956.1171875
1685049956049254100,-480,228,250240,0,49956.12890625
1685049956049394100,-480,228,249920,0,49956.13671875
1685049956095265300,-480,228,278160,0,49956.1484375
1685049956095293200,-480,228,252640,0,49956.15625
1685049956095304200,-480,228,246560,0,49956.16796875
1685049956095310100,-480,228,249040,0,49956.17578125
1685049956095348900,-480,228,247600,0,49956.1875
1685049956142971200,-480,228,250800,0,49956.1953125
1685049956142985100,-480,228,250560,0,49956.20703125
1685049956143005900,-480,228,250400,0,49956.21875
1685049956143037200,-480,228,249680,0,49956.2265625
1685049956143088900,-480,228,250240,0,49956.23828125
1685049956188765500,-480,228,249080,0,49956.24609375
1685049956188790200,-480,228,250720,0,49956.2578125
1685049956188817000,-480,228,249760,0,49956.265625
1685049956188858600,-480,228,249840,0,49956.27734375
1685049956245916400,-480,228,253760,0,49956.28515625
1685049956245947900,-480,228,247440,0,49956.296875
1685049956245964000,-480,228,248800,0,49956.30859375
1685049956245980300,-480,228,250000,0,49956.31640625
1685049956246022700,-480,228,250480,0,49956.328125
1685049956293009500,-480,228,250800,0,49956.3359375
1685049956293044000,-480,228,250640,0,49956.34765625
1685049956293051300,-480,228,250160,0,49956.35546875
1685049956293147900,-480,228,250800,0,49956.3671875
1685049956293322500,-480,228,268840,0,49956.37890625
1685049956342056500,-480,228,242480,0,49956.390625
1685049956342081500,-480,228,240080,0,49956.40234375
1685049956342101300,-480,228,258000,0,49956.40625
1685049956342124100,-470,220,249480,0,49956.421875
1685049956342145600,-454,207,255600,0,49956.4296875
1685049956342227600,-433,186,253600,0,49956.4375
1685049956399119000,-415,166,250240,0,49956.4453125
1685049956399149700,-406,156,249520,0,49956.45703125
1685049956399156900,-403,158,248800,0,49956.46875
1685049956399173500,-403,166,250480,0,49956.4765625
1685049956399180700,-407,175,250800,0,49956.48828125
1685049956446768500,-409,178,248080,0,49956.49609375
1685049956446796000,-407,176,250120,0,49956.5078125
1685049956446802000,-406,171,250160,0,49956.515625
1685049956446911700,-405,165,250720,0,49956.52734375
1685049956446940500,-405,161,250160,0,49956.53515625
1685049956495859500,-405,159,247120,0,49956.546875
1685049956495878600,-405,160,247200,0,49956.55859375
1685049956495886800,-405,161,248960,0,49956.56640625
1685049956495923300,-405,161,251120,0,49956.578125
1685049956495976500,-405,161,250160,0,49956.5859375
1685049956550357000,-405,161,249680,0,49956.59765625
1685049956550400900,-405,161,259280,0,49956.60546875
1685049956550410200,-405,161,232400,0,49956.6171875
1685049956550435600,-404,161,252080,0,49956.62890625
1685049956550444200,-404,161,249880,0,49956.63671875
1685049956596169500,-404,162,256560,0,49956.6484375
1685049956596179600,-404,162,250240,0,49956.65625
1685049956596196000,-404,162,249120,0,49956.66796875
1685049956596393300,-404,162,253760,0,49956.67578125
1685049956596417100,-404,162,250280,0,49956.6875
1685049956674574800,-404,162,248640,0,49956.6953125
1685049956674627300,-404,161,250240,0,49956.70703125
1685049956674718100,-404,162,250080,0,49956.71875
1685049956674730800,-404,162,249920,0,49956.7265625
1685049956674822800,-404,162,240080,0,49956.7421875
1685049956674831200,-404,162,264720,0,49956.74609375
1685049956675046300,-404,162,250080,0,49956.7578125
1685049956675078900,-404,162,250320,0,49956.765625
1685049956724386900,-404,162,250160,0,49956.77734375
1685049956724677400,-404,162,250080,0,49956.78515625
1685049956724736700,-404,162,247120,0,49956.796875
1685049956724753400,-404,162,253120,0,49956.80859375
1685049956724980600,-404,162,248160,0,49956.81640625
1685049956774192400,-404,162,256640,0,49956.828125
1685049956774248900,-404,162,250720,0,49956.8359375
1685049956774612800,-404,162,222880,0,49956.84765625
1685049956774864700,-404,162,249920,0,49956.85546875
1685049956774920100,-404,162,251320,0,49956.8671875
1685049956819890000,-404,162,250880,0,49956.87890625
1685049956819910800,-404,162,250880,0,49956.88671875
1685049956819920800,-404,162,253200,0,49956.8984375
1685049956820187600,-404,162,250240,0,49956.90625
1685049956820253400,-404,162,250320,0,49956.91796875
1685049956867857400,-404,162,250320,0,49956.92578125
1685049956868091400,-404,162,252400,0,49956.9375
1685049956868101400,-404,162,247000,0,49956.9453125
1685049956868173800,-404,162,249840,0,49956.95703125
1685049956916183700,-404,162,250240,0,49956.96875
1685049956916510400,-404,162,250400,0,49956.9765625
1685049956916525800,-404,162,250800,0,49956.98828125
1685049956916549100,-404,162,250200,0,49956.99609375
1685049956916555800,-404,163,250080,0,49957.0078125
1685049956966383700,-404,166,250720,0,49957.015625
1685049956966504100,-404,169,250080,0,49957.02734375
1685049956966513600,-404,170,250480,0,49957.03515625
1685049956966739300,-403,170,249920,0,49957.046875
1685049956966804700,-403,170,250040,0,49957.05859375
1685049957015339800,-403,170,252800,0,49957.06640625
1685049957015358200,-403,170,229840,0,49957.078125
1685049957015395300,-403,169,249280,0,49957.0859375
1685049957015459300,-403,169,250040,0,49957.09765625
1685049957015686800,-403,169,250080,0,49957.10546875
1685049957066241300,-403,168,250160,0,49957.1171875
1685049957066246400,-403,168,250640,0,49957.12890625
1685049957066322400,-403,168,250240,0,49957.13671875
1685049957066369700,-403,168,250880,0,49957.1484375
1685049957066393700,-403,167,251040,0,49957.15625
1685049957115312600,-403,167,250160,0,49957.16796875
1685049957115325700,-403,167,249920,0,49957.17578125
1685049957115378900,-403,166,249920,0,49957.1875
1685049957115506500,-403,166,252480,0,49957.1953125
1685049957115544100,-402,165,247520,0,49957.20703125
1685049957161872300,-402,164,250800,0,49957.21875
1685049957161915600,-402,163,250680,0,49957.2265625
1685049957161937100,-402,163,250640,0,49957.23828125
1685049957162004600,-402,163,251280,0,49957.24609375
1685049957162141300,-402,163,250480,0,49957.2578125
1685049957234371400,-402,163,250240,0,49957.265625
1685049957234387300,-402,163,250080,0,49957.27734375
1685049957234443900,-402,163,251440,0,49957.28515625
1685049957234717700,-402,163,249600,0,49957.296875
1685049957234744900,-402,163,237600,0,49957.30859375
1685049957234765800,-402,163,247400,0,49957.31640625
1685049957234789400,-402,163,252000,0,49957.328125
1685049957287134700,-402,163,248000,0,49957.3359375
1685049957287503900,-402,163,249280,0,49957.34765625
1685049957287550100,-402,163,249800,0,49957.35546875
1685049957287576300,-402,163,250080,0,49957.3671875
1685049957287604400,-402,163,250240,0,49957.37890625
1685049957334890700,-402,163,250640,0,49957.38671875
1685049957334928800,-402,163,255360,0,49957.3984375
1685049957334933800,-402,163,245200,0,49957.40625
1685049957334963200,-402,163,257840,0,49957.421875
1685049957334974100,-402,163,248480,0,49957.42578125
1685049957400019200,-402,163,250800,0,49957.4375
1685049957400058900,-402,163,247920,0,49957.4453125
1685049957400512800,-402,163,252680,0,49957.45703125
1685049957400569800,-402,163,244000,0,49957.46875
1685049957400593800,-402,163,250640,0,49957.4765625
1685049957400874300,-402,163,251040,0,49957.48828125
1685049957445611400,-402,163,249880,0,49957.49609375
1685049957445636900,-401,162,252240,0,49957.5078125
1685049957445645600,-388,153,250160,0,49957.515625
1685049957445651500,-361,130,248400,0,49957.52734375
1685049957445773600,-329,100,250080,0,49957.53515625
1685049957494473300,-296,67,249200,0,49957.546875
1685049957494486600,-272,36,252400,0,49957.55859375
1685049957494520100,-262,20,250400,0,49957.56640625
1685049957494526200,-257,19,250720,0,49957.578125
1685049957494564900,-260,27,252840,0,49957.5859375
1685049957543138200,-266,38,247760,0,49957.59765625
1685049957543162100,-270,43,248480,0,49957.60546875
1685049957543176700,-269,40,250960,0,49957.6171875
1685049957543198800,-266,32,250240,0,49957.62890625
1685049957543201300,-264,22,250560,0,49957.63671875
1685049957590519700,-263,15,250720,0,49957.6484375
1685049957590768400,-261,15,249280,0,49957.65625
1685049957590904700,-261,19,249680,0,49957.66796875
1685049957590920900,-262,23,246400,0,49957.67578125
1685049957590932800,-262,26,252400,0,49957.6875
1685049957638203100,-263,28,249840,0,49957.6953125
1685049957638222000,-262,28,250400,0,49957.70703125
1685049957638233700,-262,26,252520,0,49957.71875
1685049957638264200,-261,25,247760,0,49957.7265625
1685049957683228300,-261,24,250080,0,49957.73828125
1685049957683256700,-261,23,250280,0,49957.74609375
1685049957683262700,-262,23,250080,0,49957.7578125
1685049957683275000,-261,23,250240,0,49957.765625
1685049957683384700,-261,23,247600,0,49957.77734375
1685049957733422900,-261,23,252320,0,49957.78515625
1685049957733459500,-261,23,250320,0,49957.796875
1685049957733470100,-261,23,248960,0,49957.80859375
1685049957733478300,-261,23,250440,0,49957.81640625
1685049957733485000,-261,23,250720,0,49957.828125
1685049957778028900,-261,23,250320,0,49957.8359375
1685049957778112200,-261,23,251640,0,49957.84765625
1685049957778243400,-261,23,247520,0,49957.85546875
1685049957778458800,-261,23,250080,0,49957.8671875
1685049957826302200,-261,23,249280,0,49957.87890625
1685049957826324400,-261,23,250240,0,49957.88671875
1685049957826335200,-261,23,250240,0,49957.8984375
1685049957826343500,-261,23,248000,0,49957.90625
1685049957826353500,-261,23,250360,0,49957.91796875
1685049957873681600,-261,23,250720,0,49957.92578125
1685049957873759300,-261,23,247360,0,49957.9375
1685049957873801300,-261,23,250120,0,49957.9453125
1685049957873937800,-261,23,249759,0,49957.95703125
1685049957873970300,-261,23,249920,0,49957.96875
1685049957953497100,-261,23,252520,0,49957.9765625
1685049957953530000,-261,23,248320,0,49957.98828125
1685049957953547100,-261,23,250720,0,49957.99609375
1685049957953794600,-261,23,247760,0,49958.0078125
1685049957953834100,-261,23,250280,0,49958.015625
1685049957953863800,-261,23,250400,0,49958.02734375
1685049957953889300,-261,23,252880,0,49958.03515625
1685049957953950300,-261,23,250320,0,49958.046875
1685049957999673500,-261,23,250560,0,49958.05859375
1685049958000059900,-261,23,250320,0,49958.06640625
