%time,field.curr_pos1,field.curr_pos2,field.toff,field.motor_fail,field.t
1684798017719385100,1559,-709,362,0,98017.5625
1684798017719402600,1559,-709,322,0,98017.5703125
1684798017719428200,1559,-709,422,0,98017.5859375
1684798017719438800,1559,-709,294,0,98017.59375
1684798017719456400,1559,-709,318,0,98017.6015625
1684798017766563800,1559,-709,110,0,98017.609375
1684798017766607700,1559,-709,562,0,98017.625
1684798017766619400,1559,-709,274,0,98017.6328125
1684798017766635600,1559,-709,494,0,98017.640625
1684798017766640300,1559,-709,786,0,98017.65625
1684798017814222000,1559,-709,1498,0,98017.6640625
1684798017814268800,1559,-709,658,0,98017.671875
1684798017814273900,1559,-709,882,0,98017.6796875
1684798017814281900,1559,-709,534,0,98017.6953125
1684798017860964800,1559,-709,334,0,98017.703125
1684798017861008800,1559,-709,-4985,0,98017.71875
1684798017861012900,1559,-709,-69,0,98017.7265625
1684798017861064100,1559,-709,758,0,98017.7421875
1684798017908511300,1559,-709,270,0,98017.7578125
1684798017908529800,1559,-709,-149,0,98017.7734375
1684798017908596000,1559,-709,-2241,0,98017.7890625
1684798017965502500,1559,-709,282,0,98017.796875
1684798017965527600,1559,-709,286,0,98017.8125
1684798017965529800,1559,-709,1326,0,98017.8203125
1684798017965553200,1559,-709,66,0,98017.828125
1684798017965625900,1559,-709,-477,0,98017.8359375
1684798017965630600,1561,-710,39,0,98017.84375
1684798018011521600,1571,-718,-48,0,98017.859375
1684798018011577300,1593,-732,-292,0,98017.8671875
1684798018011594700,1621,-747,-760,0,98017.875
1684798018011603600,1642,-757,-1192,0,98017.8828125
1684798018011627400,1652,-757,-249,0,98017.8984375
1684798018062480700,1654,-750,-137,0,98017.90625
1684798018062515700,1654,-742,-237,0,98017.9140625
1684798018062517700,1655,-736,-317,0,98017.9296875
1684798018062519500,1658,-735,-237,0,98017.9375
1684798018062686500,1660,-739,-589,0,98017.9453125
1684798018112715200,1662,-743,-421,0,98017.953125
1684798018112730700,1663,-747,-421,0,98017.96875
1684798018112736500,1663,-751,-221,0,98017.9765625
1684798018112775000,1663,-752,83,0,98017.984375
1684798018112781500,1663,-750,-465,0,98017.9921875
1684798018159117300,1662,-750,-193,0,98018.0078125
1684798018159129600,1663,-750,-329,0,98018.015625
1684798018159155000,1663,-750,-229,0,98018.0234375
1684798018159158500,1663,-750,-413,0,98018.0390625
1684798018159162100,1663,-750,-348,0,98018.046875
1684798018207215900,1663,-750,-100,0,98018.0546875
1684798018207232700,1663,-750,-880,0,98018.0625
1684798018207242200,1663,-749,-193,0,98018.078125
1684798018207250600,1663,-749,-448,0,98018.0859375
1684798018254097900,1663,-749,-288,0,98018.09375
1684798018254112900,1663,-749,-340,0,98018.109375
1684798018254117600,1663,-749,-260,0,98018.1171875
1684798018254127300,1663,-749,-96,0,98018.125
1684798018254199300,1663,-749,-229,0,98018.1328125
1684798018299944300,1663,-749,-381,0,98018.1484375
1684798018299959800,1663,-749,-45,0,98018.15625
1684798018299965100,1663,-749,-269,0,98018.1640625
1684798018299984800,1663,-749,-281,0,98018.1796875
1684798018300022200,1663,-749,-353,0,98018.1875
1684798018345868700,1663,-749,-224,0,98018.1953125
1684798018345916700,1663,-749,-8,0,98018.203125
1684798018345927500,1663,-749,-297,0,98018.21875
1684798018346049700,1663,-749,-177,0,98018.2265625
1684798018396730600,1663,-749,-321,0,98018.234375
1684798018396775300,1663,-749,-433,0,98018.2421875
1684798018396778500,1663,-749,-405,0,98018.2578125
1684798018396789800,1663,-749,-401,0,98018.265625
1684798018396835800,1663,-749,-397,0,98018.2734375
1684798018444317700,1663,-749,-1,0,98018.2890625
1684798018444338500,1663,-749,-465,0,98018.296875
1684798018444354200,1663,-749,-457,0,98018.3046875
1684798018444399100,1663,-749,-113,0,98018.3125
1684798018444466100,1663,-749,-829,0,98018.328125
1684798018498354000,1663,-749,-229,0,98018.3359375
1684798018498364900,1663,-749,-301,0,98018.34375
1684798018498367000,1663,-749,-405,0,98018.359375
1684798018498368600,1663,-749,-317,0,98018.3671875
1684798018498400500,1663,-749,-341,0,98018.375
1684798018546920000,1663,-749,-261,0,98018.3828125
1684798018546933200,1663,-749,-537,0,98018.3984375
1684798018546936500,1663,-749,-409,0,98018.40625
1684798018546939300,1663,-749,-569,0,98018.4140625
1684798018547064200,1663,-749,-417,0,98018.4296875
1684798018594841700,1663,-749,-597,0,98018.4375
1684798018594857200,1663,-749,-265,0,98018.4453125
1684798018594912700,1663,-749,-937,0,98018.453125
1684798018594920100,1663,-749,-257,0,98018.46875
1684798018595050100,1663,-749,-445,0,98018.4765625
1684798018642230400,1663,-749,-501,0,98018.484375
1684798018642240800,1663,-749,-341,0,98018.4921875
1684798018642249500,1663,-747,-249,0,98018.5078125
1684798018642459600,1663,-744,-41,0,98018.515625
1684798018642508700,1663,-743,419,0,98018.5234375
1684798018696260700,1663,-743,623,0,98018.5390625
1684798018696275500,1663,-743,-777,0,98018.546875
1684798018696280100,1663,-743,195,0,98018.5546875
1684798018696306700,1663,-743,-365,0,98018.5625
1684798018696312900,1663,-743,-213,0,98018.578125
1684798018741783200,1663,-743,-509,0,98018.5859375
1684798018741797700,1663,-743,-189,0,98018.59375
1684798018741829900,1663,-743,-293,0,98018.609375
1684798018741834900,1663,-743,-157,0,98018.6171875
1684798018741872800,1663,-743,-257,0,98018.625
1684798018788649800,1663,-743,-241,0,98018.6328125
1684798018788662900,1663,-743,-345,0,98018.6484375
1684798018788666300,1663,-743,-317,0,98018.65625
1684798018788832800,1663,-743,-53,0,98018.6640625
1684798018788890600,1663,-743,-345,0,98018.6796875
1684798018835613700,1663,-743,-225,0,98018.6875
1684798018835632200,1663,-743,-293,0,98018.6953125
1684798018835640900,1663,-743,-334,0,98018.703125
1684798018835664200,1663,-743,-654,0,98018.71875
1684798018881056400,1663,-743,-278,0,98018.7265625
1684798018881058300,1663,-743,-265,0,98018.734375
1684798018881219500,1663,-743,-1626,0,98018.7421875
1684798018881226300,1663,-743,-1030,0,98018.765625
1684798018929420200,1663,-743,927,0,98018.78125
1684798018929436200,1663,-743,-4089,0,98018.7890625
1684798018929439400,1663,-743,-8909,0,98018.8046875
1684798018929465900,1663,-743,183,0,98018.8125
1684798018980976000,1663,-743,395,0,98018.8203125
1684798018980995300,1662,-743,435,0,98018.828125
1684798018981042300,1655,-743,143,0,98018.8359375
1684798018981045600,1634,-743,147,0,98018.8515625
1684798018981048400,1599,-743,-577,0,98018.859375
1684798019027903100,1573,-743,347,0,98018.8671875
1684798019027920600,1538,-743,239,0,98018.875
1684798019027934900,1503,-745,311,0,98018.890625
1684798019027943000,1469,-756,263,0,98018.8984375
1684798019028061500,1444,-777,55,0,98018.90625
1684798019076795500,1430,-806,267,0,98018.921875
1684798019076807300,1423,-832,279,0,98018.9296875
1684798019076810400,1421,-843,-33,0,98018.9375
1684798019076813500,1423,-844,315,0,98018.9453125
1684798019076824100,1426,-841,491,0,98018.9609375
1684798019123611500,1427,-840,267,0,98018.96875
1684798019123624700,1426,-842,267,0,98018.9765625
1684798019123662600,1423,-843,299,0,98018.984375
1684798019123673500,1421,-844,268,0,98019.0
1684798019123678900,1419,-845,228,0,98019.0078125
1684798019169981600,1418,-847,307,0,98019.015625
1684798019169991300,1418,-848,135,0,98019.03125
1684798019170054700,1419,-849,287,0,98019.0390625
1684798019170060000,1419,-850,183,0,98019.046875
1684798019218449800,1418,-850,-41,0,98019.0546875
1684798019218488000,1417,-849,-45,0,98019.0703125
1684798019218494300,1417,-849,243,0,98019.078125
1684798019218517600,1417,-850,315,0,98019.0859375
1684798019218669200,1418,-851,279,0,98019.1015625
1684798019266989600,1418,-851,311,0,98019.109375
1684798019267029200,1418,-851,375,0,98019.1171875
1684798019267033000,1418,-850,255,0,98019.125
1684798019267058600,1417,-850,299,0,98019.140625
1684798019267281200,1418,-850,251,0,98019.1484375
1684798019315071100,1417,-850,275,0,98019.15625
1684798019315110300,1418,-850,83,0,98019.171875
1684798019315124100,1418,-850,283,0,98019.1796875
1684798019315226400,1418,-850,147,0,98019.1953125
1684798019365486600,1418,-850,-709,0,98019.2109375
1684798019365500700,1417,-850,579,0,98019.21875
1684798019365514900,1418,-850,567,0,98019.2265625
1684798019365534600,1418,-850,559,0,98019.2421875
1684798019412725400,1418,-850,-164,0,98019.25
1684798019412741600,1418,-850,484,0,98019.265625
1684798019412749400,1418,-850,228,0,98019.2734375
1684798019412788400,1418,-850,56,0,98019.28125
1684798019412876400,1418,-850,804,0,98019.2890625
1684798019412884300,1418,-850,-156,0,98019.296875
1684798019459120400,1418,-850,-205,0,98019.3046875
1684798019459134800,1418,-850,320,0,98019.3203125
1684798019459174600,1418,-850,428,0,98019.328125
1684798019459231800,1418,-850,-460,0,98019.3359375
1684798019506655100,1418,-850,-576,0,98019.3515625
1684798019506668400,1418,-850,464,0,98019.359375
1684798019506708600,1418,-850,4,0,98019.3671875
1684798019506729800,1418,-850,124,0,98019.375
1684798019506782800,1418,-850,-556,0,98019.390625
1684798019552819900,1418,-850,220,0,98019.3984375
1684798019552844700,1418,-850,-24,0,98019.40625
1684798019552850300,1418,-850,324,0,98019.421875
1684798019552938100,1418,-850,-716,0,98019.4296875
1684798019552945200,1418,-850,-100,0,98019.4375
1684798019601304200,1418,-850,280,0,98019.4453125
1684798019601318700,1418,-850,192,0,98019.4609375
1684798019601330200,1418,-850,-784,0,98019.46875
1684798019601335900,1418,-850,-4,0,98019.4765625
1684798019647775100,1418,-850,324,0,98019.484375
1684798019647788800,1418,-850,316,0,98019.5
1684798019647795400,1418,-850,-1272,0,98019.5078125
1684798019647813000,1418,-850,196,0,98019.515625
1684798019648007300,1417,-850,-2029,0,98019.53125
1684798019695032000,1418,-850,295,0,98019.5390625
1684798019695072400,1418,-850,-1473,0,98019.546875
1684798019695091200,1418,-850,195,0,98019.5546875
1684798019695122400,1418,-850,-469,0,98019.5703125
1684798019695126600,1418,-850,119,0,98019.578125
1684798019741127900,1418,-850,-1237,0,98019.5859375
1684798019741157500,1418,-850,67,0,98019.6015625
1684798019741166200,1418,-850,139,0,98019.609375
1684798019741169700,1418,-850,43,0,98019.6171875
1684798019741387700,1418,-850,151,0,98019.625
1684798019798669500,1418,-850,271,0,98019.640625
1684798019798676300,1418,-850,23,0,98019.6484375
1684798019798685400,1418,-850,107,0,98019.65625
1684798019798691200,1418,-850,-697,0,98019.671875
1684798019846738800,1418,-850,247,0,98019.6796875
1684798019846756500,1418,-850,87,0,98019.6875
1684798019846763200,1418,-850,-149,0,98019.6953125
1684798019846766700,1418,-850,-61,0,98019.7109375
1684798019846912400,1418,-850,243,0,98019.71875
1684798019846925700,1418,-850,-333,0,98019.7265625
1684798019897902500,1418,-850,331,0,98019.734375
1684798019897912500,1418,-850,-845,0,98019.75
1684798019897917100,1418,-850,-341,0,98019.765625
1684798019962401400,1418,-850,763,0,98019.7890625
1684798019962410300,1418,-850,1100,0,98019.796875
1684798019962431400,1418,-850,1427,0,98019.8125
1684798019962501500,1418,-850,632,0,98019.8203125
1684798019962512800,1418,-850,128,0,98019.828125
1684798019962522900,1418,-850,-4,0,98019.8359375
1684798020012329400,1418,-850,632,0,98019.84375
1684798020012335000,1419,-849,452,0,98019.859375
1684798020012338100,1431,-840,428,0,98019.8671875
1684798020012410100,1455,-819,412,0,98019.875
1684798020012451700,1487,-787,676,0,98019.8828125
1684798020012457000,1521,-751,256,0,98019.8984375
1684798020059609300,1552,-717,440,0,98019.90625
1684798020059622000,1582,-683,404,0,98019.9140625
1684798020059623900,1615,-647,404,0,98019.9296875
1684798020059660300,1651,-610,496,0,98019.9375
1684798020059665000,1680,-581,376,0,98019.9453125
1684798020107915800,1691,-569,248,0,98019.953125
1684798020107920300,1692,-569,468,0,98019.96875
1684798020107933900,1692,-577,468,0,98019.9765625
1684798020108006800,1692,-584,399,0,98019.984375
1684798020156438900,1692,-584,488,0,98019.9921875
1684798020156484100,1694,-580,451,0,98020.0078125
1684798020156489600,1697,-574,411,0,98020.015625
1684798020156522800,1702,-568,288,0,98020.0390625
1684798020204313400,1703,-567,644,0,98020.046875
1684798020204332500,1702,-568,488,0,98020.0546875
1684798020204344900,1702,-568,424,0,98020.0703125
1684798020204356000,1702,-568,464,0,98020.078125
1684798020204367000,1702,-568,476,0,98020.0859375
1684798020253139800,1702,-568,500,0,98020.09375
1684798020253168400,1702,-568,492,0,98020.109375
1684798020253170100,1702,-568,556,0,98020.1171875
1684798020253204700,1702,-568,704,0,98020.125
1684798020253226600,1702,-568,464,0,98020.140625
1684798020300918700,1702,-568,548,0,98020.1484375
1684798020300931700,1702,-568,396,0,98020.15625
1684798020300933400,1702,-568,416,0,98020.1640625
1684798020300974600,1702,-568,432,0,98020.1796875
1684798020300978900,1702,-568,160,0,98020.1875
1684798020354339800,1702,-568,436,0,98020.1953125
1684798020354361100,1701,-568,444,0,98020.203125
1684798020354367800,1702,-568,444,0,98020.21875
1684798020354371300,1701,-568,632,0,98020.2265625
1684798020354401900,1702,-568,412,0,98020.234375
1684798020401117500,1701,-568,492,0,98020.25
1684798020401134000,1701,-568,452,0,98020.2578125
1684798020401167300,1701,-568,540,0,98020.265625
1684798020401170600,1701,-567,424,0,98020.2734375
1684798020401175500,1701,-567,-912,0,98020.2890625
1684798020448211500,1701,-568,376,0,98020.296875
1684798020448225000,1701,-568,348,0,98020.3046875
1684798020448339200,1701,-567,8,0,98020.3203125
1684798020448348000,1701,-567,400,0,98020.328125
1684798020495459700,1701,-567,-864,0,98020.34375
1684798020495475500,1701,-567,1500,0,98020.359375
1684798020495480600,1701,-567,336,0,98020.3671875
1684798020495485200,1701,-568,344,0,98020.3828125
1684798020544413300,1701,-567,-1188,0,98020.390625
1684798020544432900,1701,-567,268,0,98020.3984375
1684798020544462100,1701,-568,276,0,98020.40625
1684798020544529000,1701,-567,276,0,98020.421875
1684798020591653600,1701,-567,200,0,98020.4296875
1684798020591684500,1701,-568,220,0,98020.4375
1684798020591710000,1701,-567,668,0,98020.453125
1684798020591719000,1701,-567,432,0,98020.4609375
1684798020591732400,1701,-567,56,0,98020.46875
1684798020638608300,1701,-567,264,0,98020.4765625
1684798020638626100,1701,-567,312,0,98020.4921875
1684798020638633500,1701,-567,512,0,98020.5
1684798020638637900,1701,-567,184,0,98020.5078125
1684798020638644100,1701,-567,300,0,98020.5234375
1684798020685505100,1701,-567,468,0,98020.53125
1684798020685528800,1701,-567,272,0,98020.5390625
1684798020685557200,1701,-567,328,0,98020.546875
1684798020685571900,1701,-567,336,0,98020.5625
1684798020685615800,1701,-567,372,0,98020.5703125
1684798020733390300,1701,-567,236,0,98020.578125
1684798020733406600,1701,-567,300,0,98020.59375
1684798020733424800,1701,-567,308,0,98020.6015625
1684798020733529600,1701,-567,108,0,98020.609375
1684798020733558800,1701,-567,-348,0,98020.6171875
1684798020780398800,1701,-567,268,0,98020.6328125
1684798020780404400,1701,-567,252,0,98020.640625
1684798020780486300,1701,-567,256,0,98020.6484375
1684798020780491200,1701,-567,224,0,98020.65625
1684798020828435500,1701,-567,360,0,98020.671875
1684798020828456600,1701,-567,248,0,98020.6796875
1684798020828474600,1701,-567,408,0,98020.6875
1684798020828479100,1701,-567,296,0,98020.703125
1684798020828507300,1701,-567,200,0,98020.7109375
1684798020874497200,1701,-567,172,0,98020.71875
1684798020874509200,1701,-567,76,0,98020.7265625
1684798020874514600,1701,-567,276,0,98020.7421875
1684798020874539800,1701,-567,-428,0,98020.75
1684798020874562500,1701,-567,512,0,98020.7578125
1684798020922909800,1701,-567,-164,0,98020.7734375
1684798020922960200,1701,-567,736,0,98020.8046875
1684798020978513300,1701,-567,276,0,98020.8203125
1684798020978526700,1701,-567,668,0,98020.828125
1684798020978529700,1701,-567,848,0,98020.84375
1684798020978554900,1701,-567,280,0,98020.8515625
1684798021029300100,1702,-568,-464,0,98020.8671875
1684798021029500000,1707,-573,56,0,98020.875
1684798021029504300,1711,-581,760,0,98020.8828125
1684798021029626600,1716,-596,1060,0,98020.890625
1684798021029656700,1719,-619,408,0,98020.8984375
1684798021029660800,1721,-648,368,0,98020.9140625
1684798021077199700,1724,-682,184,0,98020.921875
1684798021077215400,1727,-711,536,0,98020.9296875
1684798021077218500,1730,-745,360,0,98020.9453125
1684798021077261500,1731,-778,-240,0,98020.953125
1684798021077268100,1731,-806,312,0,98020.9609375
1684798021125201800,1728,-821,108,0,98020.96875
1684798021125353100,1725,-825,312,0,98020.984375
1684798021125363700,1719,-821,416,0,98020.9921875
1684798021125424700,1716,-817,-648,0,98021.0
1684798021172999700,1718,-815,-436,0,98021.015625
1684798021173011400,1720,-816,1200,0,98021.0234375
1684798021173014300,1723,-817,472,0,98021.03125
1684798021173175200,1725,-818,328,0,98021.0390625
1684798021173183700,1726,-821,396,0,98021.0546875
1684798021220122000,1726,-825,516,0,98021.0625
1684798021220134300,1726,-828,389,0,98021.0703125
1684798021220137400,1725,-830,297,0,98021.078125
1684798021220179600,1725,-831,385,0,98021.09375
1684798021220202600,1726,-830,197,0,98021.1015625
1684798021266443100,1725,-830,261,0,98021.109375
1684798021266500100,1725,-830,297,0,98021.125
1684798021266506200,1725,-830,377,0,98021.1328125
1684798021266513800,1724,-830,361,0,98021.140625
1684798021266668000,1725,-830,369,0,98021.1484375
1684798021315108600,1725,-830,525,0,98021.1640625
1684798021315123400,1724,-830,253,0,98021.171875
1684798021315126400,1724,-830,305,0,98021.1796875
1684798021315129600,1724,-830,293,0,98021.1953125
1684798021315161400,1724,-830,329,0,98021.203125
1684798021363295900,1724,-830,361,0,98021.2109375
1684798021363344700,1724,-830,393,0,98021.21875
1684798021363350500,1724,-830,205,0,98021.234375
1684798021363451400,1724,-830,381,0,98021.2421875
1684798021414157700,1724,-830,213,0,98021.25
1684798021414169300,1724,-830,649,0,98021.265625
1684798021414172300,1724,-830,373,0,98021.2734375
1684798021414340900,1724,-830,349,0,98021.28125
1684798021414383800,1724,-830,413,0,98021.2890625
1684798021465567700,1724,-830,417,0,98021.3046875
1684798021465579600,1724,-830,377,0,98021.3125
1684798021465591500,1724,-830,306,0,98021.3203125
1684798021465626900,1724,-830,530,0,98021.328125
1684798021465636200,1724,-830,342,0,98021.34375
1684798021513509600,1724,-830,242,0,98021.3515625
1684798021513523900,1724,-830,274,0,98021.359375
1684798021513527200,1724,-830,314,0,98021.375
1684798021513605000,1724,-829,374,0,98021.3828125
1684798021513654300,1724,-829,318,0,98021.390625
1684798021568348800,1724,-829,502,0,98021.3984375
1684798021568359500,1724,-829,402,0,98021.4140625
1684798021568379700,1724,-829,282,0,98021.421875
1684798021568383500,1724,-829,330,0,98021.4296875
1684798021568538000,1724,-829,342,0,98021.4453125
1684798021568559700,1724,-829,322,0,98021.453125
1684798021618163300,1724,-829,394,0,98021.4609375
1684798021618175000,1724,-829,394,0,98021.46875
1684798021618257400,1724,-829,342,0,98021.484375
1684798021618263600,1724,-829,250,0,98021.4921875
1684798021618306100,1724,-829,370,0,98021.5
1684798021666337800,1724,-829,410,0,98021.515625
1684798021666347600,1724,-829,322,0,98021.5234375
1684798021666349400,1724,-829,578,0,98021.53125
1684798021666351100,1724,-829,-258,0,98021.546875
1684798021666374100,1724,-829,298,0,98021.5546875
1684798021732967900,1724,-829,974,0,98021.5625
1684798021733016000,1724,-829,438,0,98021.5703125
1684798021733067500,1724,-829,494,0,98021.578125
1684798021733078200,1724,-829,558,0,98021.59375
1684798021733101700,1724,-829,586,0,98021.6015625
1684798021733151900,1724,-829,546,0,98021.609375
1684798021779443600,1724,-829,-946,0,98021.625
