%time,field.mx,field.my,field.fz
1676076595801662600,399.0,838.0,382.2
1676076595801684200,389.0,873.0,378.28
1676076595801708800,374.0,910.0,368.48
1676076595801717000,364.0,956.0,350.84
1676076595864138400,356.0,1000.0,343.0
1676076595864154500,351.0,1042.0,335.15999999999997
1676076595864216200,345.0,1084.0,319.48
1676076595864223400,341.0,1126.0,307.71999999999997
1676076595864278400,337.0,1167.0,294.0
1676076595921899400,334.0,1208.0,276.36
1676076595921928100,338.0,1254.0,256.76
1676076595921937300,337.0,1302.0,237.16
1676076595921950000,341.0,1349.0,217.56
1676076595921987500,346.0,1383.0,217.56
1676076595922019700,349.0,1407.0,215.6
1676076595922027100,350.0,1408.0,219.51999999999998
1676076595922078000,346.0,1394.0,221.48
1676076595984040800,338.0,1367.0,215.6
1676076595984067600,325.0,1321.0,207.76
1676076595984081800,304.0,1249.0,194.04
1676076595984113800,275.0,1149.0,172.48
1676076596051384300,238.0,1039.0,150.92
1676076596051409200,196.0,908.0,131.32
1676076596051423100,155.0,759.0,111.72
1676076596051430800,115.0,603.0,94.08
1676076596051436300,81.0,452.0,64.67999999999999
1676076596051476300,53.0,321.0,27.439999999999998
1676076596111019400,26.0,210.0,-5.88
1676076596111048100,-2.0,116.0,-31.36
1676076596111060000,-31.0,62.0,-56.839999999999996
1676076596111082700,-39.0,41.0,-78.4
1676076596111112100,-53.0,3.0,-80.36
1676076596111126600,-69.0,-29.0,-92.12
1676076596111146400,-117.0,-147.0,-96.03999999999999
1676076596167842900,-39.0,-7.0,-80.36
1676076596167862300,-29.0,4.0,-84.28
1676076596167880600,-21.0,-16.0,-74.48
1676076596167901400,-34.0,2.0,-76.44
1676076596167908300,-36.0,23.0,-74.48
1676076596167922300,-38.0,22.0,-76.44
1676076596167995700,-40.0,4.0,-74.48
1676076596168042700,-51.0,-2.0,-80.36
1676076596220907400,-62.0,-4.0,-84.28
1676076596220933900,-51.0,13.0,-84.28
1676076596220940800,-49.0,12.0,-82.32
1676076596221003000,-51.0,10.0,-84.28
1676076596275044900,-47.0,10.0,-82.32
1676076596275061800,-44.0,11.0,-82.32
1676076596275066800,-45.0,11.0,-86.24
1676076596275091700,-44.0,15.0,-88.2
1676076596319853100,-44.0,17.0,-90.16
1676076596319875600,-43.0,19.0,-90.16
1676076596319915100,-41.0,20.0,-94.08
1676076596319985700,-39.0,23.0,-96.03999999999999
1676076596319993900,-39.0,25.0,-94.08
1676076596320053700,-36.0,25.0,-94.08
1676076596365468700,-35.0,24.0,-98.0
1676076596365493500,-31.0,24.0,-99.96
1676076596365502300,-26.0,24.0,-99.96
1676076596365526900,-20.0,26.0,-98.0
1676076596412182300,-17.0,31.0,-99.96
1676076596412199600,-14.0,36.0,-99.96
1676076596412227200,-13.0,39.0,-103.88
1676076596412236600,-12.0,39.0,-103.88
1676076596412257400,-8.0,41.0,-107.8
1676076596412271400,-11.0,44.0,-111.72
1676076596471568500,-12.0,52.0,-105.84
1676076596471591700,-8.0,65.0,-98.0
1676076596471599800,-14.0,59.0,-92.12
1676076596471615200,-15.0,60.0,-84.28
1676076596541705500,-19.0,62.0,-86.24
1676076596541730000,-24.0,71.0,-80.36
1676076596541738500,-25.0,72.0,-60.76
1676076596541745500,-14.0,38.0,-25.48
1676076596597723700,9.0,2.0,37.24
1676076596597752100,58.0,-49.0,178.35999999999999
1676076596597767900,160.0,-141.0,397.88
1676076596597796900,223.0,-155.0,490.0
1676076596597802100,239.0,-104.0,493.92
1676076596655766400,213.0,-77.0,456.68
1676076596655802400,184.0,-96.0,444.92
1676076596655836100,185.0,-141.0,488.03999999999996
1676076596655845800,200.0,-199.0,544.88
1676076596655852900,218.0,-228.0,576.24
1676076596655901200,240.0,-205.0,603.68
1676076596655967300,261.0,-157.0,627.2
1676076596655979800,292.0,-113.0,654.64
1676076596656030600,332.0,-67.0,672.28
1676076596656084000,373.0,-29.0,684.04
1676076596701578000,511.0,115.0,693.84
1676076596701614600,541.0,158.0,711.48
1676076596701621600,544.0,185.0,699.72
1676076596701642900,537.0,212.0,670.3199999999999
1676076596761195900,516.0,237.0,640.92
1676076596761221400,490.0,252.0,615.4399999999999
1676076596761231100,465.0,261.0,591.92
1676076596761237100,445.0,274.0,564.48
1676076596827142900,430.0,291.0,540.96
1676076596827163200,422.0,315.0,519.4
1676076596827168600,416.0,344.0,499.8
1676076596827194500,409.0,377.0,482.15999999999997
1676076596827210000,404.0,410.0,468.44
1676076596894763100,400.0,441.0,460.59999999999997
1676076596894786500,395.0,471.0,454.71999999999997
1676076596894808400,391.0,499.0,452.76
1676076596894852600,384.0,533.0,450.8
1676076596894859700,376.0,566.0,448.84
1676076596949129400,367.0,598.0,446.88
1676076596949136800,363.0,632.0,448.84
1676076596949141100,358.0,667.0,448.84
1676076596949187200,354.0,704.0,444.92
1676076596949200500,349.0,739.0,442.96
1676076596949217200,347.0,775.0,437.08
1676076596949263400,343.0,811.0,427.28
1676076596949269400,342.0,847.0,423.36
1676076596949314200,342.0,877.0,415.52
1676076596994767700,342.0,916.0,407.68
1676076596994795700,342.0,950.0,397.88
1676076596994804200,343.0,986.0,386.12
1676076596994858300,345.0,1025.0,370.44
1676076597045192100,346.0,1068.0,350.84
1676076597045202700,345.0,1109.0,333.2
1676076597045208700,340.0,1149.0,307.71999999999997
1676076597045231400,331.0,1183.0,284.2
1676076597045243400,324.0,1212.0,268.52
1676076597045275400,323.0,1232.0,254.79999999999998
1676076597104777000,328.0,1242.0,254.79999999999998
1676076597104789800,327.0,1250.0,254.79999999999998
1676076597104841900,321.0,1248.0,248.92
1676076597104848600,310.0,1233.0,241.07999999999998
1676076597158600300,295.0,1201.0,227.35999999999999
1676076597158629900,271.0,1146.0,209.72
1676076597158650600,241.0,1064.0,188.16
1676076597158665400,206.0,971.0,162.68
1676076597158671500,172.0,868.0,143.07999999999998
1676076597216404600,135.0,747.0,123.48
1676076597216419200,76.0,483.0,78.4
1676076597216427800,51.0,359.0,50.96
1676076597216478500,31.0,252.0,21.56
1676076597270175500,11.0,166.0,-1.96
1676076597270202200,-13.0,101.0,-27.439999999999998
1676076597270229700,-29.0,64.0,-47.04
1676076597333699800,-37.0,47.0,-62.72
1676076597333721200,-55.0,4.0,-74.48
1676076597333726000,-44.0,11.0,-78.4
1676076597333749900,-105.0,-142.0,-88.2
1676076597333755200,-49.0,-19.0,-88.2
1676076597333766800,-31.0,7.0,-82.32
1676076597333782100,-20.0,-11.0,-78.4
1676076597333862100,-27.0,1.0,-72.52
1676076597333906800,-33.0,17.0,-74.48
1676076597333924200,-33.0,20.0,-72.52
1676076597388315000,-30.0,15.0,-70.56
1676076597388335900,-37.0,10.0,-74.48
1676076597388344100,-41.0,5.0,-76.44
1676076597388381500,-47.0,4.0,-78.4
1676076597388436200,-59.0,5.0,-80.36
1676076597388442900,-57.0,5.0,-80.36
1676076597388494600,-52.0,13.0,-78.4
1676076597436891700,-50.0,17.0,-80.36
1676076597436911800,-51.0,16.0,-82.32
1676076597436919900,-49.0,19.0,-80.36
1676076597436980000,-51.0,19.0,-84.28
1676076597496344900,-49.0,21.0,-84.28
1676076597496364100,-50.0,22.0,-84.28
1676076597496402300,-50.0,25.0,-88.2
1676076597496409200,-47.0,27.0,-88.2
1676076597542573700,-46.0,28.0,-90.16
1676076597542592600,-44.0,29.0,-90.16
1676076597542599400,-42.0,30.0,-92.12
1676076597542604800,-43.0,32.0,-92.12
1676076597542631200,-43.0,31.0,-96.03999999999999
1676076597599151600,-40.0,31.0,-96.03999999999999
1676076597599173500,-41.0,30.0,-98.0
1676076597599201400,-40.0,31.0,-98.0
1676076597599217600,-24.0,36.0,-99.96
1676076597650669200,-22.0,52.0,-105.84
1676076597650692100,-27.0,60.0,-109.75999999999999
1676076597650700400,-23.0,55.0,-96.03999999999999
1676076597650705400,-10.0,64.0,-54.879999999999995
1676076597650709400,-22.0,-3.0,-41.16
1676076597650719600,-18.0,-53.0,-11.76
1676076597728643600,-44.0,-29.0,-21.56
1676076597728660600,-41.0,-7.0,-17.64
1676076597728665200,-47.0,-17.0,-3.92
1676076597728689700,-47.0,-36.0,31.36
1676076597728694900,-47.0,-104.0,94.08
1676076597789951000,-33.0,-190.0,180.32
1676076597789975100,0.0,-163.0,237.16
1676076597790003100,34.0,-101.0,254.79999999999998
1676076597790008600,71.0,-62.0,286.15999999999997
1676076597790083600,124.0,-65.0,354.76
1676076597790091100,183.0,-53.0,431.2
1676076597790094900,254.0,-32.0,501.76
1676076597790098500,322.0,-7.0,568.4
1676076597850666100,374.0,21.0,623.28
1676076597850683600,405.0,42.0,666.4
1676076597850687800,414.0,69.0,693.84
1676076597850713800,408.0,105.0,699.72
1676076597850740300,418.0,154.0,701.68
1676076597896235700,420.0,192.0,703.64
1676076597896264100,421.0,225.0,691.88
1676076597896272100,425.0,261.0,672.28
1676076597896293500,431.0,297.0,654.64
1676076597896352800,435.0,330.0,633.08
1676076597943484000,438.0,360.0,607.6
1676076597943502400,433.0,386.0,578.2
1676076597943507100,419.0,422.0,540.96
1676076597943565200,405.0,451.0,509.59999999999997
1676076598013420900,389.0,470.0,480.2
1676076598013444100,372.0,484.0,458.64
1676076598013464400,355.0,503.0,433.15999999999997
1676076598013468900,333.0,528.0,407.68
1676076598013519500,313.0,555.0,388.08
1676076598013526600,300.0,584.0,374.36
1676076598082560900,293.0,615.0,364.56
1676076598082579200,287.0,645.0,360.64
1676076598082584000,282.0,676.0,360.64
1676076598082611100,278.0,708.0,362.59999999999997
1676076598082620100,274.0,745.0,362.59999999999997
1676076598082633300,268.0,784.0,360.64
1676076598082701200,264.0,827.0,360.64
1676076598082713000,260.0,870.0,362.59999999999997
1676076598144286800,260.0,914.0,358.68
1676076598144313200,262.0,958.0,352.8
1676076598144321300,264.0,996.0,348.88
1676076598144326700,270.0,1033.0,339.08
1676076598144376200,278.0,1070.0,329.28
1676076598208553900,289.0,1106.0,317.52
1676076598269044800,306.0,1186.0,272.44
1676076598269062500,312.0,1224.0,258.71999999999997
1676076598269116600,319.0,1257.0,250.88
1676076598269125100,327.0,1282.0,241.07999999999998
1676076598269171800,333.0,1294.0,237.16
1676076598269178700,337.0,1288.0,235.2
1676076598269249100,335.0,1261.0,229.32
1676076598328185500,323.0,1216.0,213.64
1676076598328208500,297.0,1142.0,186.2
1676076598328216500,251.0,1044.0,150.92
1676076598328227400,199.0,935.0,115.64
1676076598328243400,145.0,795.0,90.16
1676076598328315700,100.0,640.0,72.52
1676076598385844800,63.0,493.0,52.92
1676076598385868000,33.0,361.0,25.48
1676076598385887900,9.0,248.0,1.96
1676076598385897200,-14.0,155.0,-19.6
1676076598448487100,-30.0,82.0,-41.16
1676076598448507300,-37.0,55.0,-58.8
1676076598448529000,-75.0,-16.0,-68.6
1676076598448542400,-58.0,9.0,-84.28
1676076598448550300,-124.0,-42.0,-107.8
1676076598448610300,-116.0,-82.0,-94.08
1676076598508601200,-49.0,-5.0,-84.28
1676076598508609100,-27.0,-1.0,-78.4
1676076598508644100,-23.0,-1.0,-74.48
1676076598508651000,-31.0,7.0,-76.44
1676076598508715300,-38.0,27.0,-78.4
1676076598508721100,-40.0,32.0,-80.36
1676076598508726400,-41.0,32.0,-82.32
1676076598508779600,-39.0,23.0,-80.36
1676076598555063400,-44.0,8.0,-80.36
1676076598555080500,-52.0,8.0,-84.28
1676076598555085000,-54.0,6.0,-84.28
1676076598614476900,-49.0,15.0,-84.28
1676076598614509100,-47.0,18.0,-88.2
1676076598614517700,-46.0,16.0,-84.28
1676076598614523800,-48.0,16.0,-88.2
1676076598614540400,-47.0,19.0,-88.2
1676076598614557800,-47.0,19.0,-86.24
1676076598614573400,-51.0,18.0,-90.16
1676076598674727700,-54.0,18.0,-90.16
1676076598674759700,-54.0,21.0,-92.12
1676076598674772600,-53.0,23.0,-92.12
1676076598674778700,-53.0,26.0,-94.08
1676076598674795300,-55.0,26.0,-96.03999999999999
1676076598723563600,-54.0,26.0,-96.03999999999999
1676076598723591600,-54.0,27.0,-98.0
1676076598723610000,-54.0,29.0,-103.88
1676076598723644200,-51.0,31.0,-101.92
1676076598788965100,-50.0,33.0,-103.88
1676076598788973300,-51.0,33.0,-103.88
1676076598788977300,-51.0,35.0,-105.84
1676076598789006100,-55.0,33.0,-107.8
1676076598847449800,-53.0,35.0,-109.75999999999999
1676076598847472300,-53.0,33.0,-113.67999999999999
1676076598847480100,-48.0,32.0,-115.64
1676076598847551400,-51.0,43.0,-123.48
1676076598847571400,-15.0,107.0,-109.75999999999999
1676076598847590700,-16.0,123.0,-107.8
1676076598847600200,-32.0,144.0,-115.64
1676076598847654900,-45.0,135.0,-115.64
1676076598847662600,-44.0,122.0,-111.72
1676076598847705000,-38.0,110.0,-107.8
1676076598898810400,-34.0,103.0,-88.2
1676076598957500000,-24.0,133.0,-5.88
1676076598957523000,34.0,96.0,147.0
1676076598957539700,175.0,12.0,435.12
1676076598957544500,312.0,-22.0,660.52
1676076598957548900,371.0,-62.0,780.08
1676076598957583600,302.0,-157.0,748.72
1676076598957624100,312.0,-202.0,742.84
1676076598957700200,346.0,-230.0,746.76
1676076599017128000,403.0,-236.0,750.68
1676076599017134900,463.0,-224.0,754.6
1676076599017143200,517.0,-189.0,766.36
1676076599017152400,527.0,-148.0,758.52
1676076599064589400,509.0,-115.0,731.08
1676076599064596600,499.0,-86.0,707.56
1676076599064636200,499.0,-48.0,695.8
1676076599064642200,507.0,2.0,684.04
1676076599064701500,512.0,48.0,682.08
1676076599064713600,507.0,86.0,682.08
1676076599131154300,487.0,114.0,670.3199999999999
1676076599131175100,455.0,138.0,646.8
1676076599131215200,424.0,161.0,617.4
1676076599131222200,397.0,180.0,589.96
1676076599186822900,381.0,198.0,568.4
1676076599186848500,373.0,214.0,548.8
1676076599186862000,370.0,230.0,535.08
1676076599186899600,369.0,249.0,525.28
1676076599186906500,370.0,268.0,517.4399999999999
1676076599186944000,372.0,287.0,509.59999999999997
1676076599186950500,373.0,330.0,509.59999999999997
1676076599186978300,371.0,354.0,509.59999999999997
1676076599187065300,367.0,385.0,509.59999999999997
1676076599187072900,360.0,420.0,503.71999999999997
1676076599234498700,355.0,452.0,503.71999999999997
1676076599234523800,351.0,482.0,499.8
1676076599234539500,345.0,508.0,495.88
1676076599234568500,339.0,535.0,490.0
1676076599296348100,330.0,565.0,486.08
1676076599296364000,321.0,599.0,476.28
1676076599296376600,318.0,639.0,468.44
1676076599296450700,316.0,684.0,462.56
1676076599296457100,316.0,735.0,460.59999999999997
1676076599361390600,315.0,788.0,450.8
1676076599361398400,314.0,847.0,439.03999999999996
1676076599361426600,308.0,908.0,419.44
1676076599361455400,301.0,970.0,392.0
1676076599428416800,294.0,1031.0,364.56
1676076599428440600,288.0,1085.0,339.08
1676076599428450200,285.0,1126.0,317.52
1676076599428456300,284.0,1170.0,292.04
1676076599428461700,301.0,1213.0,266.56
1676076599428467000,318.0,1242.0,252.84
1676076599428616100,308.0,1272.0,231.28
1676076599428665800,288.0,1253.0,217.56
1676076599428674800,266.0,1218.0,199.92
1676076599428708300,238.0,1161.0,176.4
1676076599482700200,206.0,1074.0,156.8
1676076599482739700,171.0,977.0,139.16
1676076599542631200,141.0,872.0,121.52
1676076599542655300,109.0,759.0,98.0
1676076599542663800,79.0,638.0,76.44
1676076599542725500,52.0,518.0,52.92
1676076599542733100,32.0,405.0,25.48
1676076599542789500,17.0,299.0,1.96
1676076599542828200,4.0,207.0,-15.68
1676076599590036000,-9.0,126.0,-31.36
1676076599590090400,-24.0,72.0,-47.04
1676076599590097800,-35.0,47.0,-70.56
1676076599590166800,-40.0,34.0,-84.28
1676076599590177000,-46.0,11.0,-86.24
1676076599636821600,-92.0,-87.0,-94.08
1676076599695801900,-108.0,-113.0,-92.12
1676076599695819300,-37.0,-5.0,-78.4
1676076599695829200,-25.0,1.0,-80.36
1676076599695841100,-26.0,-13.0,-76.44
1676076599695883300,-33.0,4.0,-78.4
1676076599695958500,-32.0,19.0,-78.4
1676076599743951200,-31.0,16.0,-76.44
1676076599743958600,-33.0,7.0,-74.48
1676076599744086400,-41.0,3.0,-80.36
1676076599744094100,-52.0,1.0,-80.36
1676076599744160100,-60.0,1.0,-86.24
1676076599744172700,-55.0,9.0,-82.32
1676076599794454300,-47.0,13.0,-84.28
1676076599794482200,-42.0,14.0,-82.32
1676076599794494700,-41.0,11.0,-82.32
1676076599794516400,-36.0,14.0,-82.32
1676076599794522100,-35.0,15.0,-86.24
1676076599794532500,-36.0,15.0,-84.28
1676076599852825200,-38.0,14.0,-88.2
1676076599852841900,-38.0,16.0,-90.16
1676076599852849700,-39.0,20.0,-96.03999999999999
1676076599852880500,-38.0,22.0,-94.08
1676076599899693400,-35.0,24.0,-94.08
1676076599899707900,-36.0,23.0,-98.0
1676076599899737300,-35.0,22.0,-98.0
1676076599899821400,-31.0,23.0,-98.0
1676076599899834100,-30.0,23.0,-101.92
1676076599947891300,-25.0,25.0,-101.92
1676076599947897800,-23.0,29.0,-105.84
1676076599947945000,-24.0,33.0,-109.75999999999999
1676076599947989800,-26.0,38.0,-111.72
1676076600017863000,-29.0,40.0,-113.67999999999999
1676076600071722000,-29.0,44.0,-113.67999999999999
1676076600071747200,-32.0,47.0,-113.67999999999999
1676076600071755400,-32.0,57.0,-117.6
1676076600071793300,-47.0,75.0,-121.52
1676076600071800500,-58.0,130.0,-131.32
1676076600071856800,-43.0,144.0,-121.52
1676076600071867300,-28.0,102.0,-109.75999999999999
1676076600071925700,-15.0,99.0,-103.88
1676076600071937700,-18.0,107.0,-105.84
1676076600118617200,-35.0,98.0,-109.75999999999999
1676076600118625700,-33.0,88.0,-107.8
1676076600118630000,-26.0,89.0,-92.12
1676076600118634200,-23.0,110.0,-41.16
1676076600165308000,30.0,37.0,68.6
1676076600165318900,116.0,1.0,286.15999999999997
1676076600165325300,253.0,-36.0,515.48
1676076600165384700,333.0,-62.0,644.84
1676076600165392900,345.0,-73.0,684.04
1676076600165410700,303.0,-83.0,670.3199999999999
1676076600210884000,261.0,-102.0,650.72
1676076600210891600,238.0,-142.0,635.04
1676076600210919500,245.0,-200.0,638.96
1676076600210961200,271.0,-247.0,660.52
1676076600264003800,315.0,-312.0,687.96
1676076600264034100,362.0,-319.0,701.68
1676076600264068800,401.0,-281.0,699.72
1676076600264076300,429.0,-227.0,699.72
1676076600322403900,450.0,-182.0,705.6
1676076600322426300,458.0,-143.0,711.48
1676076600322439100,451.0,-109.0,703.64
1676076600322462800,442.0,-69.0,693.84
1676076600322475300,448.0,-20.0,689.92
1676076600370162100,465.0,23.0,697.76
1676076600370181000,469.0,43.0,701.68
1676076600370187100,458.0,53.0,689.92
1676076600370228100,438.0,63.0,668.36
1676076600435831700,415.0,72.0,640.92
1676076600435849700,400.0,84.0,621.3199999999999
1676076600435862400,393.0,94.0,603.68
1676076600435907400,392.0,104.0,593.88
1676076600435923200,394.0,114.0,584.08
1676076600435930800,394.0,127.0,574.28
1676076600506571800,383.0,171.0,558.6
1676076600506593500,377.0,190.0,552.72
1676076600506602200,369.0,212.0,542.92
1676076600506608000,359.0,234.0,531.16
1676076600566335400,351.0,258.0,523.3199999999999
1676076600566347400,340.0,282.0,509.59999999999997
1676076600566378300,329.0,303.0,491.96
1676076600566383700,319.0,324.0,480.2
1676076600566388100,309.0,345.0,466.48
1676076600566392200,300.0,367.0,450.8
1676076600566401000,293.0,386.0,441.0
1676076600566412600,291.0,409.0,439.03999999999996
1676076600566419200,287.0,441.0,435.12
1676076600614467900,284.0,475.0,437.08
1676076600614490900,283.0,507.0,442.96
1676076600614515800,285.0,542.0,456.68
1676076600614537100,286.0,582.0,466.48
1676076600614563900,285.0,630.0,472.36
1676076600673924400,281.0,688.0,468.44
1676076600673947100,276.0,754.0,460.59999999999997
1676076600673968600,271.0,828.0,444.92
1676076600727544100,265.0,899.0,419.44
1676076600727571700,261.0,963.0,392.0
1676076600727580800,258.0,1014.0,364.56
1676076600727593600,220.0,1052.0,196.0
1676076600727627800,189.0,991.0,170.52
1676076600727660300,159.0,925.0,139.16
1676076600787197700,131.0,847.0,113.67999999999999
1676076600787225000,104.0,737.0,96.03999999999999
1676076600787235300,81.0,614.0,78.4
1676076600787241100,62.0,495.0,56.839999999999996
1676076600787253900,42.0,389.0,31.36
1676076600787274500,27.0,293.0,13.719999999999999
1676076600843561500,17.0,214.0,-3.92
1676076600843587700,2.0,151.0,-23.52
1676076600843603100,-18.0,94.0,-39.2
1676076600843611000,-31.0,59.0,-52.92
1676076600843619100,-37.0,45.0,-68.6
1676076600843625500,-62.0,-12.0,-76.44
1676076600843636300,-50.0,23.0,-94.08
1676076600843719800,-123.0,-84.0,-105.84
1676076600894250200,-101.0,-70.0,-99.96
1676076600950306600,-36.0,-9.0,-84.28
1676076600950324400,-18.0,-10.0,-82.32
1676076600950341500,-19.0,-17.0,-74.48
