%time,field.mx,field.my,field.fz
1676075797376720100,83.0,-14.0,246.96
1676075797376726300,126.0,-9.0,280.28
1676075797376730100,164.0,-1.0,311.64
1676075797376737000,195.0,7.0,348.88
1676075797376759900,220.0,18.0,382.2
1676075797376764500,241.0,33.0,411.59999999999997
1676075797376783200,259.0,42.0,442.96
1676075797376798100,280.0,41.0,480.2
1676075797376808800,309.0,45.0,517.4399999999999
1676075797376823900,319.0,62.0,544.88
1676075797376828500,308.0,96.0,558.6
1676075797376868100,290.0,125.0,568.4
1676075797376889900,277.0,151.0,584.08
1676075797376923500,275.0,181.0,599.76
1676075797376928600,277.0,251.0,650.72
1676075797376945700,275.0,273.0,660.52
1676075797376954500,277.0,298.0,666.4
1676075797376959400,279.0,320.0,670.3199999999999
1676075797376966000,284.0,340.0,670.3199999999999
1676075797376981700,288.0,359.0,666.4
1676075797377007800,287.0,374.0,654.64
1676075797377016700,289.0,384.0,648.76
1676075797377023100,287.0,390.0,638.96
1676075797377051300,291.0,397.0,629.16
1676075797377059800,294.0,402.0,617.4
1676075797377083700,298.0,406.0,611.52
1676075797377090000,302.0,438.0,560.56
1676075797403094500,301.0,450.0,552.72
1676075797403100900,295.0,463.0,546.84
1676075797403120700,292.0,478.0,546.84
1676075797403133100,287.0,494.0,544.88
1676075797473551600,279.0,512.0,542.92
1676075797473560300,275.0,529.0,548.8
1676075797473615200,267.0,544.0,554.68
1676075797473640000,260.0,561.0,558.6
1676075797473647600,252.0,579.0,564.48
1676075797473697500,241.0,600.0,560.56
1676075797473704400,230.0,620.0,558.6
1676075797575503600,220.0,642.0,550.76
1676075797575516400,211.0,660.0,540.96
1676075797575527600,203.0,675.0,523.3199999999999
1676075797575592100,197.0,689.0,509.59999999999997
1676075797575599300,192.0,703.0,488.03999999999996
1676075797575646500,189.0,715.0,468.44
1676075797575654300,185.0,728.0,441.0
1676075797575701500,183.0,742.0,407.68
1676075797575709400,178.0,752.0,368.48
1676075797673753700,174.0,757.0,327.32
1676075797673780000,163.0,756.0,276.36
1676075797673790300,148.0,746.0,227.35999999999999
1676075797673796000,133.0,727.0,188.16
1676075797673807700,118.0,700.0,148.96
1676075797673828500,115.0,667.0,121.52
1676075797673845400,106.0,618.0,105.84
1676075797673859400,93.0,568.0,80.36
1676075797673883700,78.0,516.0,64.67999999999999
1676075797673889900,63.0,460.0,45.08
1676075797673965500,54.0,403.0,23.52
1676075797745701300,49.0,345.0,9.8
1676075797745713000,43.0,288.0,-3.92
1676075797745723800,38.0,236.0,-9.8
1676075797745792000,26.0,190.0,-21.56
1676075797745855300,18.0,151.0,-29.4
1676075797745865700,10.0,114.0,-33.32
1676075797745911500,2.0,84.0,-43.12
1676075797745924700,-4.0,55.0,-45.08
1676075797746000600,-14.0,31.0,-52.92
1676075797746007300,-22.0,18.0,-56.839999999999996
1676075797816611600,-32.0,11.0,-64.67999999999999
1676075797816618700,-35.0,13.0,-68.6
1676075797816636200,-33.0,18.0,-74.48
1676075797816671300,-17.0,7.0,-66.64
1676075797816677200,-55.0,11.0,-78.4
1676075797875191000,-51.0,15.0,-78.4
1676075797875204300,-44.0,14.0,-74.48
1676075797875238600,-38.0,2.0,-68.6
1676075797875254200,-35.0,5.0,-66.64
1676075797875264200,-39.0,9.0,-72.52
1676075797875271300,-51.0,4.0,-74.48
1676075797875310100,-53.0,10.0,-76.44
1676075797875337500,-48.0,11.0,-70.56
1676075797875343800,-43.0,10.0,-74.48
1676075797875371000,-38.0,9.0,-72.52
1676075797935123800,-36.0,11.0,-70.56
1676075797935142600,-40.0,13.0,-74.48
1676075797935158200,-40.0,15.0,-74.48
1676075797935170800,-40.0,17.0,-80.36
1676075797935178100,-35.0,19.0,-76.44
1676075797935199200,-35.0,20.0,-78.4
1676075798004462000,-32.0,21.0,-82.32
1676075798004469800,-29.0,23.0,-80.36
1676075798004518600,-32.0,23.0,-82.32
1676075798004523900,-31.0,24.0,-84.28
1676075798063241100,-29.0,26.0,-82.32
1676075798063250700,-29.0,27.0,-84.28
1676075798063255900,-30.0,25.0,-84.28
1676075798063309600,-27.0,26.0,-82.32
1676075798063316700,-26.0,26.0,-84.28
1676075798123378300,-25.0,26.0,-86.24
1676075798123402500,-25.0,26.0,-88.2
1676075798123414200,-26.0,26.0,-88.2
1676075798123420500,-25.0,28.0,-86.24
1676075798123425300,-28.0,28.0,-86.24
1676075798123430100,-29.0,32.0,-88.2
1676075798123438600,-32.0,34.0,-86.24
1676075798123443400,-34.0,38.0,-84.28
1676075798123447600,-37.0,41.0,-88.2
1676075798123481300,-36.0,43.0,-84.28
1676075798213396800,-37.0,42.0,-82.32
1676075798274081800,-35.0,43.0,-84.28
1676075798274088800,-35.0,43.0,-86.24
1676075798274115600,-33.0,44.0,-86.24
1676075798274173900,-27.0,42.0,-86.24
1676075798274181200,-15.0,40.0,-86.24
1676075798274252000,-18.0,46.0,-84.28
1676075798333247600,-23.0,46.0,-86.24
1676075798333272200,-26.0,47.0,-88.2
1676075798333293600,-23.0,50.0,-86.24
1676075798333306100,-20.0,50.0,-84.28
1676075798333335600,-22.0,52.0,-84.28
1676075798333357100,-26.0,51.0,-80.36
1676075798333364900,-22.0,56.0,-66.64
1676075798405913100,5.0,15.0,-37.24
1676075798405932600,-6.0,-61.0,-9.8
1676075798405938900,-3.0,-35.0,33.32
1676075798405943900,19.0,-27.0,84.28
1676075798474130800,54.0,11.0,133.28
1676075798474137900,61.0,21.0,190.12
1676075798474163400,42.0,4.0,243.04
1676075798474233300,4.0,-38.0,274.4
1676075798474248100,-27.0,-89.0,284.2
1676075798474253800,-35.0,-117.0,292.04
1676075798474294900,-13.0,-138.0,311.64
1676075798474356400,32.0,-160.0,346.92
1676075798474364000,90.0,-183.0,392.0
1676075798563721000,151.0,-207.0,439.03999999999996
1676075798563758900,219.0,-214.0,490.0
1676075798563766200,273.0,-211.0,533.12
1676075798563870200,312.0,-188.0,564.48
1676075798563876900,339.0,-149.0,588.0
1676075798563946400,347.0,-105.0,603.68
1676075798563959100,343.0,-61.0,619.36
1676075798816049700,334.0,-19.0,627.2
1676075798816072800,322.0,14.0,633.08
1676075798816081200,309.0,38.0,642.88
1676075798816092900,299.0,65.0,646.8
1676075798816132400,284.0,93.0,640.92
1676075798816146100,277.0,116.0,646.8
1676075798930145800,278.0,143.0,648.76
1676075798930150200,285.0,173.0,648.76
1676075798930154900,292.0,198.0,644.84
1676075798930159200,301.0,224.0,638.96
1676075798930238600,306.0,240.0,631.12
1676075798930250500,306.0,243.0,627.2
1676075798930278900,307.0,248.0,621.3199999999999
1676075798930307100,301.0,255.0,615.4399999999999
1676075798930337500,296.0,276.0,605.64
1676075798930349800,289.0,297.0,601.72
1676075798930357700,284.0,318.0,599.76
1676075799341843800,281.0,338.0,597.8
1676075799341851400,275.0,355.0,591.92
1676075799341876000,273.0,371.0,588.0
1676075799341938600,268.0,387.0,586.04
1676075799341945400,260.0,397.0,584.08
1676075799341949700,251.0,404.0,584.08
1676075799341953900,251.0,421.0,582.12
1676075799341999900,249.0,442.0,572.3199999999999
1676075799342034300,249.0,461.0,572.3199999999999
1676075799342088200,246.0,475.0,564.48
1676075799342110700,245.0,493.0,552.72
1676075799342177900,244.0,510.0,542.92
1676075799342184900,240.0,527.0,527.24
1676075799342189800,233.0,542.0,513.52
1676075799342193700,226.0,560.0,499.8
1676075799342220500,219.0,581.0,480.2
1676075799342311100,207.0,596.0,462.56
1676075799342318700,195.0,614.0,444.92
1676075799342369300,203.0,734.0,372.4
1676075799342414400,202.0,747.0,335.15999999999997
1676075799342429300,187.0,757.0,284.2
1676075799342439800,169.0,764.0,229.32
1676075799342479800,144.0,761.0,180.32
1676075799342533700,118.0,747.0,139.16
1676075799342540100,88.0,725.0,105.84
1676075799342570800,81.0,691.0,98.0
1676075799342608300,70.0,651.0,82.32
1676075799342614000,58.0,605.0,70.56
1676075799342689500,51.0,559.0,62.72
1676075799342696400,53.0,509.0,56.839999999999996
1676075799342741100,57.0,456.0,54.879999999999995
1676075799342754900,59.0,408.0,45.08
1676075799342789800,58.0,367.0,39.2
1676075799342796400,52.0,335.0,25.48
1676075799342813900,45.0,306.0,17.64
1676075799688609300,36.0,278.0,3.92
1676075799688630900,30.0,250.0,-3.92
1676075799688670800,25.0,222.0,-9.8
1676075799688689000,18.0,193.0,-21.56
1676075799688701100,12.0,164.0,-27.439999999999998
1676075799688733600,5.0,134.0,-31.36
1676075799688740000,-4.0,105.0,-41.16
1676075799688769000,-8.0,80.0,-43.12
1676075799688786300,-14.0,52.0,-47.04
1676075799688839100,-16.0,32.0,-54.879999999999995
1676075799688865200,-20.0,17.0,-56.839999999999996
1676075799688903900,-31.0,9.0,-64.67999999999999
1676075799688910700,-33.0,11.0,-66.64
1676075799688958600,-19.0,10.0,-70.56
1676075799688981500,-7.0,-25.0,-66.64
1676075799688988000,-42.0,-25.0,-78.4
1676075799688999200,-60.0,3.0,-78.4
1676075799689021100,-53.0,11.0,-76.44
1676075799689064300,-35.0,10.0,-66.64
1676075799689075100,-42.0,5.0,-68.6
1676075799689100500,-45.0,11.0,-72.52
1676075799689177800,-40.0,11.0,-68.6
1676075799689225600,-36.0,6.0,-68.6
1676075799689261100,-33.0,6.0,-70.56
1676075799689271300,-32.0,9.0,-72.52
1676075800048744500,-34.0,11.0,-74.48
1676075800048756900,-33.0,10.0,-74.48
1676075800048765900,-31.0,11.0,-76.44
1676075800048772200,-31.0,11.0,-76.44
1676075800048778000,-26.0,13.0,-80.36
1676075800048782600,-25.0,18.0,-84.28
1676075800048786300,-22.0,21.0,-82.32
1676075800048790200,-21.0,21.0,-84.28
1676075800048794200,-20.0,22.0,-86.24
1676075800048798300,-20.0,23.0,-84.28
1676075800048802300,-23.0,26.0,-90.16
1676075800048829000,-23.0,27.0,-86.24
1676075800048852200,-27.0,29.0,-88.2
1676075800048858000,-29.0,34.0,-90.16
1676075800048896900,-31.0,39.0,-92.12
1676075800048903900,-30.0,42.0,-92.12
1676075800048908600,-14.0,68.0,-94.08
1676075800048913200,-19.0,82.0,-94.08
1676075800048938700,-37.0,78.0,-96.03999999999999
1676075800048944000,-43.0,77.0,-94.08
1676075800048988300,-40.0,73.0,-90.16
1676075800049003700,-36.0,72.0,-92.12
1676075800049015900,-30.0,68.0,-86.24
1676075800049034700,-31.0,57.0,-86.24
1676075800049040800,-30.0,61.0,-76.44
1676075800049046700,-13.0,54.0,-41.16
1676075800049077900,-30.0,-9.0,-19.6
1676075800049085200,-11.0,-9.0,50.96
1676075800049151700,18.0,-8.0,123.48
1676075800049161400,54.0,43.0,219.51999999999998
1676075800049165900,82.0,51.0,313.6
1676075800049221800,83.0,46.0,384.15999999999997
1676075800049228900,66.0,23.0,431.2
1676075800049254600,51.0,7.0,460.59999999999997
1676075800049282800,52.0,2.0,490.0
1676075800113143900,80.0,1.0,515.48
1676075800113167100,123.0,2.0,550.76
1676075800113184800,185.0,4.0,580.16
1676075800113191700,239.0,-3.0,605.64
1676075800113196900,283.0,-4.0,621.3199999999999
1676075800113202900,319.0,8.0,627.2
1676075800113276000,343.0,26.0,627.2
1676075800113309500,354.0,43.0,629.16
1676075800113358500,380.0,60.0,633.08
1676075800113365500,391.0,99.0,638.96
1676075800113384600,383.0,146.0,627.2
1676075800113391800,355.0,196.0,617.4
1676075800113407400,331.0,245.0,605.64
1676075800113453100,311.0,282.0,599.76
1676075800113459700,301.0,304.0,599.76
1676075800113464600,292.0,319.0,603.68
1676075800113476200,285.0,337.0,597.8
1676075800113505300,279.0,359.0,597.8
1676075800113585900,271.0,382.0,591.92
1676075800113592400,269.0,401.0,593.88
1676075800113629400,275.0,429.0,584.08
1676075800113635900,287.0,461.0,576.24
1676075800113663300,302.0,479.0,578.2
1676075800113694800,316.0,493.0,576.24
1676075800113726400,329.0,513.0,564.48
1676075800113732400,337.0,532.0,562.52
1676075800113749900,335.0,553.0,550.76
1676075800113786500,329.0,580.0,542.92
1676075800113808500,319.0,610.0,531.16
1676075800113896900,310.0,637.0,525.28
1676075800113908800,301.0,659.0,523.3199999999999
1676075800265804500,292.0,681.0,523.3199999999999
1676075800265828400,285.0,705.0,521.36
1676075800265843400,275.0,731.0,517.4399999999999
1676075800265850100,268.0,761.0,511.56
1676075800265855900,261.0,794.0,501.76
1676075800265879500,254.0,826.0,491.96
1676075800265981800,251.0,857.0,484.12
1676075800265989800,248.0,888.0,470.4
1676075800266021200,243.0,916.0,460.59999999999997
1676075800266054000,238.0,942.0,444.92
1676075800266066300,234.0,967.0,427.28
1676075800266073600,228.0,992.0,403.76
1676075800266123200,220.0,1014.0,380.24
1676075800865531800,210.0,1037.0,352.8
1676075800865559100,200.0,1055.0,329.28
1676075800865569100,193.0,1072.0,307.71999999999997
1676075800865582600,186.0,1086.0,284.2
1676075800865591200,181.0,1096.0,264.6
1676075800865606200,179.0,1101.0,245.0
1676075800865655200,183.0,1102.0,225.4
1676075800865664400,185.0,1091.0,211.68
1676075800865669200,173.0,1060.0,196.0
1676075800865674900,159.0,1009.0,180.32
1676075800865755200,140.0,941.0,164.64
1676075800865797100,125.0,875.0,143.07999999999998
1676075800865811100,117.0,798.0,129.35999999999999
1676075800865818700,110.0,713.0,113.67999999999999
1676075800865858400,103.0,625.0,98.0
1676075800865975400,95.0,541.0,78.4
1676075800865982300,87.0,463.0,62.72
1676075800865986800,80.0,390.0,49.0
1676075800865991200,69.0,327.0,31.36
1676075800865995700,59.0,270.0,19.6
1676075800866000100,42.0,217.0,5.88
1676075800866004600,28.0,169.0,-7.84
1676075800866035200,16.0,122.0,-15.68
1676075800866082600,5.0,79.0,-21.56
1676075800866106000,-3.0,42.0,-31.36
1676075800866112700,-9.0,17.0,-37.24
1676075800866130300,-16.0,-1.0,-45.08
1676075800866136200,-16.0,-7.0,-54.879999999999995
1676075800866141800,-1.0,-8.0,-54.879999999999995
1676075800866166300,12.0,-32.0,-56.839999999999996
1676075800866170800,-8.0,-30.0,-68.6
1676075800866175200,-51.0,-11.0,-76.44
1676075800866235600,-64.0,-1.0,-78.4
1676075800866241700,-43.0,14.0,-74.48
1676075800866248200,-34.0,4.0,-68.6
1676075800866253200,-19.0,-7.0,-64.67999999999999
1676075800866264900,-23.0,13.0,-64.67999999999999
1676075800866271600,-28.0,17.0,-66.64
1676075800866280000,-31.0,13.0,-62.72
1676075800866369000,-35.0,7.0,-64.67999999999999
1676075800866384000,-49.0,8.0,-66.64
1676075800866420400,-46.0,16.0,-70.56
1676075800866426600,-45.0,15.0,-68.6
1676075800866445300,-43.0,11.0,-68.6
1676075800866449700,-38.0,10.0,-68.6
1676075800866472600,-33.0,11.0,-64.67999999999999
1676075800866476900,-35.0,15.0,-72.52
1676075800866486600,-39.0,13.0,-70.56
1676075800866490800,-40.0,17.0,-76.44
1676075800866501400,-39.0,20.0,-74.48
1676075800866512000,-36.0,22.0,-76.44
1676075800866524000,-32.0,24.0,-76.44
1676075801045296500,-30.0,23.0,-78.4
1676075801045302800,-27.0,26.0,-82.32
1676075801045322100,-25.0,28.0,-80.36
1676075801045371900,-25.0,30.0,-82.32
1676075801045379000,-24.0,31.0,-82.32
1676075801045426600,-23.0,33.0,-84.28
1676075801045433000,-18.0,37.0,-84.28
1676075801045458800,-18.0,38.0,-84.28
1676075801045493600,-20.0,38.0,-84.28
1676075801045500600,-18.0,39.0,-86.24
1676075801045558700,-17.0,39.0,-88.2
1676075801045565400,-15.0,41.0,-90.16
1676075801045625600,-14.0,43.0,-88.2
1676075801045633000,-15.0,44.0,-90.16
1676075801045649200,-18.0,44.0,-92.12
1676075801045654500,-20.0,48.0,-92.12
1676075801045695100,-24.0,52.0,-94.08
1676075801045713200,-27.0,57.0,-90.16
1676075801045785300,-29.0,58.0,-88.2
1676075801045791700,-28.0,66.0,-90.16
1676075801045795700,-23.0,75.0,-88.2
1676075801045840600,-32.0,77.0,-88.2
1676075801045853000,-41.0,71.0,-88.2
1676075801913722300,-38.0,63.0,-80.36
1676075801913745200,-31.0,64.0,-72.52
1676075801913752600,-30.0,63.0,-56.839999999999996
1676075801913756800,-42.0,35.0,-43.12
1676075801913761400,-25.0,-93.0,7.84
1676075801913765200,-5.0,-57.0,70.56
1676075801913792000,37.0,-56.0,156.8
1676075801913805400,87.0,-13.0,248.92
1676075801913813100,127.0,3.0,333.2
1676075801913817900,111.0,-8.0,390.04
1676075801913823500,72.0,-50.0,423.36
1676075801913828000,38.0,-90.0,435.12
1676075801913832700,21.0,-107.0,458.64
1676075801913845400,29.0,-114.0,486.08
1676075801913853200,69.0,-113.0,531.16
1676075801913857900,121.0,-100.0,578.2
1676075801913862300,180.0,-81.0,611.52
1676075801913880500,233.0,-62.0,638.96
1676075801913885100,272.0,-53.0,652.68
1676075801913889500,302.0,-40.0,658.56
1676075801913893800,315.0,10.0,652.68
1676075801913899600,312.0,65.0,638.96
1676075801913904100,308.0,103.0,635.04
1676075801913908500,307.0,141.0,631.12
1676075801913912900,298.0,174.0,625.24
1676075801913917300,286.0,211.0,615.4399999999999
1676075801913921700,273.0,242.0,609.56
1676075801913926200,255.0,269.0,597.8
1676075801913930700,245.0,296.0,589.96
1676075801913935100,239.0,321.0,580.16
1676075801913939200,236.0,350.0,570.36
1676075801913943900,227.0,373.0,560.56
1676075801913951800,223.0,389.0,560.56
1676075801913956600,227.0,405.0,558.6
1676075801913982300,236.0,431.0,550.76
1676075801913990300,250.0,462.0,542.92
1676075801914005100,260.0,479.0,542.92
1676075801914018800,268.0,493.0,540.96
1676075801914031600,275.0,513.0,533.12
1676075801914038100,280.0,529.0,533.12
1676075801914050500,275.0,549.0,529.2
1676075801914057800,269.0,575.0,527.24
1676075801914102900,256.0,605.0,519.4
1676075801914134000,248.0,636.0,517.4399999999999
1676075801914164000,243.0,668.0,517.4399999999999
1676075801914170700,240.0,696.0,519.4
1676075801914182700,238.0,725.0,517.4399999999999
1676075801914201900,236.0,752.0,517.4399999999999
1676075801914254900,236.0,782.0,515.48
1676075801914294900,232.0,814.0,505.68
1676075801914301400,231.0,846.0,495.88
1676075801914366300,229.0,878.0,484.12
1676075802302632300,227.0,910.0,470.4
1676075802302643200,224.0,938.0,456.68
1676075802302661300,224.0,964.0,442.96
1676075802302691300,223.0,991.0,425.32
1676075802302723100,218.0,1017.0,403.76
1676075802302729700,211.0,1041.0,382.2
1676075802302806300,209.0,1067.0,360.64
1676075802302830900,207.0,1092.0,337.12
1676075802302840300,207.0,1115.0,315.56
1676075802302847400,206.0,1135.0,294.0
1676075802302853100,208.0,1152.0,280.28
1676075802302857600,207.0,1165.0,262.64
1676075802302894600,211.0,1173.0,248.92
1676075802302918500,214.0,1167.0,239.12
1676075802302928400,211.0,1150.0,229.32
1676075802302934000,199.0,1112.0,217.56
1676075802303074100,178.0,1061.0,199.92
1676075802303087600,155.0,995.0,182.28
1676075802303101000,142.0,927.0,164.64
1676075802303113500,129.0,847.0,150.92
1676075802303121200,112.0,664.0,111.72
1676075802303200500,100.0,571.0,88.2
1676075802303206900,89.0,482.0,68.6
1676075802303252400,76.0,394.0,54.879999999999995
1676075802303259800,58.0,314.0,35.28
1676075802303272100,40.0,241.0,17.64
1676075802303284300,-25.0,-9.0,-37.24
1676075802303305400,-29.0,-16.0,-41.16
1676075802303317900,-14.0,-10.0,-49.0
1676075802303332300,16.0,-41.0,-45.08
1676075802303372600,-9.0,-43.0,-56.839999999999996
1676075802303435200,-58.0,-16.0,-72.52
1676075802303447200,-65.0,-2.0,-72.52
1676075802303459900,-41.0,17.0,-66.64
1676075802303564300,-34.0,14.0,-66.64
1676075802303573300,-22.0,-5.0,-58.8
1676075802303629100,-25.0,14.0,-58.8
1676075802303636600,-28.0,23.0,-62.72
1676075802303681300,-33.0,7.0,-62.72
1676075802303688400,-46.0,8.0,-66.64
1676075802303744500,-47.0,18.0,-68.6
1676075802410877600,-42.0,20.0,-68.6
1676075802410886500,-39.0,15.0,-66.64
1676075802410897400,-33.0,13.0,-64.67999999999999
1676075802410902000,-32.0,18.0,-68.6
1676075802410906100,-31.0,22.0,-68.6
1676075802410938000,-36.0,21.0,-70.56
1676075802411008800,-39.0,20.0,-72.52
1676075802411015900,-41.0,22.0,-72.52
1676075802411022500,-44.0,25.0,-76.44
1676075802411027200,-39.0,29.0,-74.48
1676075802411038100,-39.0,28.0,-76.44
1676075802411046500,-36.0,29.0,-76.44
1676075802411103200,-34.0,28.0,-78.4
1676075802411124700,-32.0,31.0,-76.44
1676075802411190600,-34.0,31.0,-78.4
1676075802411205000,-32.0,33.0,-78.4
1676075802411210700,-33.0,35.0,-82.32
1676075802411242600,-33.0,35.0,-82.32
1676075802411248600,-33.0,37.0,-82.32
1676075802411253000,-32.0,38.0,-86.24
1676075802411305700,-32.0,39.0,-86.24
1676075802411311300,-29.0,40.0,-86.24
1676075802411366000,-25.0,39.0,-82.32
1676075802411379800,-25.0,42.0,-88.2
1676075802411386000,-25.0,44.0,-84.28
1676075802411474600,-26.0,44.0,-86.24
1676075802564275600,-20.0,48.0,-86.24
1676075802564315100,-19.0,48.0,-84.28
1676075802564321200,-18.0,50.0,-86.24
